,Time,Current
0,1708519020.00041,13
1,1708519020.01046,13
2,1708519020.02039,13
3,1708519020.03038,12
4,1708519020.0404,13
5,1708519020.05038,12
6,1708519020.06044,13
7,1708519020.07034,13
8,1708519020.08037,13
9,1708519020.09037,13
10,1708519020.10032,13
11,1708519020.11031,13
12,1708519020.12029,13
13,1708519020.13035,13
14,1708519020.14028,13
15,1708519020.15028,13
16,1708519020.16028,13
17,1708519020.17026,13
18,1708519020.18033,13
19,1708519020.19023,13
20,1708519020.20026,13
21,1708519020.21022,13
22,1708519020.2202,13
23,1708519020.23019,13
24,1708519020.2402,13
25,1708519020.25023,13
26,1708519020.26017,13
27,1708519020.27018,13
28,1708519020.28018,13
29,1708519020.29016,13
30,1708519020.30021,13
31,1708519020.31012,13
32,1708519020.32012,13
33,1708519020.33012,13
34,1708519020.34009,13
35,1708519020.35019,13
36,1708519020.36007,13
37,1708519020.3701,13
38,1708519020.38007,13
39,1708519020.39005,13
40,1708519020.40005,13
41,1708519020.41005,13
42,1708519020.42008,13
43,1708519020.43001,13
44,1708519020.44001,13
45,1708519020.45002,13
46,1708519020.45998,13
47,1708519020.47006,13
48,1708519020.47998,13
49,1708519020.48997,13
50,1708519020.49997,13
51,1708519020.50995,13
52,1708519020.52004,13
53,1708519020.52992,13
54,1708519020.53995,13
55,1708519020.5499,13
56,1708519020.5599,13
57,1708519020.56992,13
58,1708519020.57988,13
59,1708519020.58994,13
60,1708519020.59986,13
61,1708519020.60985,13
62,1708519020.61986,13
63,1708519020.62984,12
64,1708519020.63982,12
65,1708519020.64981,12
66,1708519020.65985,12
67,1708519020.66979,13
68,1708519020.6798,12
69,1708519020.68978,13
70,1708519020.69978,13
71,1708519020.70983,13
72,1708519020.71975,13
73,1708519020.72975,13
74,1708519020.73975,13
75,1708519020.74972,13
76,1708519020.75981,14
77,1708519020.76971,14
78,1708519020.77973,14
79,1708519020.7897,13
80,1708519020.79969,13
81,1708519020.80968,13
82,1708519020.81964,14
83,1708519020.82971,14
84,1708519020.83963,13
85,1708519020.84962,13
86,1708519020.85964,13
87,1708519020.86962,13
88,1708519020.87969,13
89,1708519020.88958,13
90,1708519020.89962,13
91,1708519020.90957,13
92,1708519020.91956,13
93,1708519020.92957,13
94,1708519020.93954,13
95,1708519020.9496,13
96,1708519020.95952,13
97,1708519020.96951,13
98,1708519020.97952,13
99,1708519020.9895,13
100,1708519020.99959,13
101,1708519021.00948,13
102,1708519021.0195,13
103,1708519021.02945,14
104,1708519021.03945,13
105,1708519021.04947,13
106,1708519021.05942,13
107,1708519021.06948,13
108,1708519021.07941,13
109,1708519021.08942,13
110,1708519021.09942,13
111,1708519021.10938,13
112,1708519021.11948,13
113,1708519021.12936,13
114,1708519021.13937,13
115,1708519021.14937,13
116,1708519021.15934,13
117,1708519021.16944,13
118,1708519021.17931,13
119,1708519021.18934,13
120,1708519021.1993,13
121,1708519021.20929,13
122,1708519021.2193,13
123,1708519021.22927,14
124,1708519021.23933,13
125,1708519021.24926,13
126,1708519021.25926,13
127,1708519021.26924,13
128,1708519021.27924,13
129,1708519021.28933,13
130,1708519021.29922,13
131,1708519021.30923,13
132,1708519021.3192,13
133,1708519021.32918,13
134,1708519021.3392,13
135,1708519021.34918,13
136,1708519021.35921,13
137,1708519021.36914,13
138,1708519021.37913,13
139,1708519021.38914,13
140,1708519021.39911,13
141,1708519021.4092,13
142,1708519021.41909,13
143,1708519021.42912,13
144,1708519021.4391,13
145,1708519021.44907,13
146,1708519021.45907,13
147,1708519021.46905,13
148,1708519021.4791,13
149,1708519021.48903,13
150,1708519021.49902,13
151,1708519021.50903,13
152,1708519021.51902,13
153,1708519021.52907,13
154,1708519021.539,13
155,1708519021.54899,13
156,1708519021.559,13
157,1708519021.56895,13
158,1708519021.57894,13
159,1708519021.58893,13
160,1708519021.59897,13
161,1708519021.60892,13
162,1708519021.61891,13
163,1708519021.62892,13
164,1708519021.63889,13
165,1708519021.64895,13
166,1708519021.65887,13
167,1708519021.66886,13
168,1708519021.67888,13
169,1708519021.68886,13
170,1708519021.69893,13
171,1708519021.70884,13
172,1708519021.71885,13
173,1708519021.72881,13
174,1708519021.7388,13
175,1708519021.74881,13
176,1708519021.75878,13
177,1708519021.76883,15
178,1708519021.77877,14
179,1708519021.78875,15
180,1708519021.79876,14
181,1708519021.80874,13
182,1708519021.81882,14
183,1708519021.82872,13
184,1708519021.83874,13
185,1708519021.8487,13
186,1708519021.85871,13
187,1708519021.86868,13
188,1708519021.87867,13
189,1708519021.88871,13
190,1708519021.89865,13
191,1708519021.90864,13
192,1708519021.91865,13
193,1708519021.92862,13
194,1708519021.93868,12
195,1708519021.94861,12
196,1708519021.9586,12
197,1708519021.96861,13
198,1708519021.97858,13
199,1708519021.98868,13
200,1708519021.99856,12
201,1708519022.00859,12
202,1708519022.01855,13
203,1708519022.02853,13
204,1708519022.03853,12
205,1708519022.04851,12
206,1708519022.05857,13
207,1708519022.06849,13
208,1708519022.07848,13
209,1708519022.0885,12
210,1708519022.09847,12
211,1708519022.10855,13
212,1708519022.11845,13
213,1708519022.12848,13
214,1708519022.13847,13
215,1708519022.14842,12
216,1708519022.15842,12
217,1708519022.1684,13
218,1708519022.17844,13
219,1708519022.18839,13
220,1708519022.19838,13
221,1708519022.20838,13
222,1708519022.21835,13
223,1708519022.22844,13
224,1708519022.23833,12
225,1708519022.24834,12
226,1708519022.25832,12
227,1708519022.26831,13
228,1708519022.2783,12
229,1708519022.28829,13
230,1708519022.29832,13
231,1708519022.30828,13
232,1708519022.31828,13
233,1708519022.32827,12
234,1708519022.33824,13
235,1708519022.34831,13
236,1708519022.35822,12
237,1708519022.36823,13
238,1708519022.37823,13
239,1708519022.3882,12
240,1708519022.39819,12
241,1708519022.40818,12
242,1708519022.4182,13
243,1708519022.42816,13
244,1708519022.43816,13
245,1708519022.44816,13
246,1708519022.45815,13
247,1708519022.46821,13
248,1708519022.47811,13
249,1708519022.48812,13
250,1708519022.4981,13
251,1708519022.50808,13
252,1708519022.51807,13
253,1708519022.52807,13
254,1708519022.53811,13
255,1708519022.54805,13
256,1708519022.55805,13
257,1708519022.56805,13
258,1708519022.57802,13
259,1708519022.58809,12
260,1708519022.59802,12
261,1708519022.608,13
262,1708519022.618,13
263,1708519022.62798,13
264,1708519022.63796,12
265,1708519022.64797,12
266,1708519022.65799,13
267,1708519022.66795,13
268,1708519022.67792,13
269,1708519022.68805,13
270,1708519022.69791,13
271,1708519022.70796,13
272,1708519022.71789,13
273,1708519022.72788,13
274,1708519022.73789,13
275,1708519022.74788,13
276,1708519022.75795,14
277,1708519022.76785,14
278,1708519022.77788,13
279,1708519022.78783,13
280,1708519022.79782,13
281,1708519022.80782,13
282,1708519022.8178,13
283,1708519022.82785,13
284,1708519022.83778,13
285,1708519022.84778,13
286,1708519022.85779,13
287,1708519022.86775,13
288,1708519022.87784,13
289,1708519022.88774,13
290,1708519022.89774,13
291,1708519022.90772,13
292,1708519022.91772,13
293,1708519022.92781,13
294,1708519022.93769,13
295,1708519022.94772,13
296,1708519022.95766,13
297,1708519022.96766,13
298,1708519022.97767,12
299,1708519022.98764,12
300,1708519022.99771,12
301,1708519023.00762,13
302,1708519023.01763,13
303,1708519023.02763,12
304,1708519023.0376,12
305,1708519023.0477,12
306,1708519023.05759,12
307,1708519023.06761,13
308,1708519023.07756,13
309,1708519023.08754,13
310,1708519023.09755,13
311,1708519023.10753,12
312,1708519023.11758,13
313,1708519023.12751,13
314,1708519023.13751,13
315,1708519023.14753,12
316,1708519023.15749,13
317,1708519023.16755,13
318,1708519023.17748,13
319,1708519023.18747,13
320,1708519023.19747,13
321,1708519023.20745,12
322,1708519023.21743,13
323,1708519023.22742,13
324,1708519023.23746,12
325,1708519023.2474,13
326,1708519023.25739,13
327,1708519023.2674,13
328,1708519023.27738,13
329,1708519023.28746,12
330,1708519023.29737,13
331,1708519023.30735,13
332,1708519023.31736,13
333,1708519023.32732,13
334,1708519023.33743,13
335,1708519023.34731,12
336,1708519023.35734,12
337,1708519023.36729,13
338,1708519023.37728,13
339,1708519023.38729,13
340,1708519023.39727,12
341,1708519023.40732,12
342,1708519023.41724,13
343,1708519023.42724,13
344,1708519023.43725,12
345,1708519023.44723,12
346,1708519023.45731,13
347,1708519023.4672,13
348,1708519023.47722,13
349,1708519023.48718,13
350,1708519023.49717,13
351,1708519023.50718,13
352,1708519023.51717,13
353,1708519023.52721,13
354,1708519023.53713,13
355,1708519023.54712,13
356,1708519023.55714,12
357,1708519023.56711,13
358,1708519023.57719,13
359,1708519023.58709,13
360,1708519023.59711,12
361,1708519023.60707,12
362,1708519023.61705,13
363,1708519023.62705,13
364,1708519023.63704,12
365,1708519023.64709,12
366,1708519023.65702,12
367,1708519023.667,13
368,1708519023.67703,13
369,1708519023.68701,12
370,1708519023.69706,13
371,1708519023.70697,13
372,1708519023.71698,13
373,1708519023.72698,13
374,1708519023.73695,13
375,1708519023.74705,13
376,1708519023.75693,14
377,1708519023.76695,14
378,1708519023.77691,14
379,1708519023.78692,13
380,1708519023.79691,13
381,1708519023.80688,13
382,1708519023.81694,13
383,1708519023.82687,13
384,1708519023.83685,12
385,1708519023.84686,13
386,1708519023.85684,13
387,1708519023.86694,13
388,1708519023.87683,13
389,1708519023.88685,12
390,1708519023.89682,13
391,1708519023.90678,13
392,1708519023.91679,13
393,1708519023.92677,12
394,1708519023.93684,13
395,1708519023.94676,13
396,1708519023.95674,12
397,1708519023.96675,13
398,1708519023.97673,13
399,1708519023.98682,12
400,1708519023.99672,12
401,1708519024.00673,12
402,1708519024.01668,13
403,1708519024.02667,13
404,1708519024.03667,12
405,1708519024.04666,13
406,1708519024.0567,13
407,1708519024.06664,13
408,1708519024.07664,13
409,1708519024.08664,12
410,1708519024.09661,13
411,1708519024.10668,13
412,1708519024.1166,13
413,1708519024.1266,13
414,1708519024.1366,12
415,1708519024.14657,13
416,1708519024.15666,13
417,1708519024.16655,13
418,1708519024.17658,13
419,1708519024.18654,13
420,1708519024.19652,13
421,1708519024.20654,13
422,1708519024.2165,13
423,1708519024.22655,13
424,1708519024.23648,12
425,1708519024.24648,12
426,1708519024.25649,13
427,1708519024.26647,13
428,1708519024.27655,13
429,1708519024.28644,12
430,1708519024.29646,13
431,1708519024.30642,12
432,1708519024.31641,13
433,1708519024.3264,13
434,1708519024.33639,13
435,1708519024.34643,13
436,1708519024.35637,12
437,1708519024.36637,13
438,1708519024.37638,13
439,1708519024.38636,12
440,1708519024.39643,12
441,1708519024.40632,12
442,1708519024.41633,13
443,1708519024.4263,13
444,1708519024.4363,12
445,1708519024.44631,13
446,1708519024.4563,13
447,1708519024.46633,13
448,1708519024.47626,13
449,1708519024.48627,13
450,1708519024.49626,13
451,1708519024.50623,13
452,1708519024.51631,13
453,1708519024.52623,14
454,1708519024.53622,14
455,1708519024.54623,14
456,1708519024.55618,13
457,1708519024.56618,13
458,1708519024.57617,13
459,1708519024.58621,12
460,1708519024.59616,12
461,1708519024.60615,12
462,1708519024.61615,13
463,1708519024.62612,13
464,1708519024.63619,12
465,1708519024.64612,12
466,1708519024.65612,13
467,1708519024.66611,13
468,1708519024.67607,13
469,1708519024.68607,13
470,1708519024.69605,13
471,1708519024.7061,13
472,1708519024.71604,13
473,1708519024.72605,13
474,1708519024.73604,13
475,1708519024.74602,13
476,1708519024.7561,14
477,1708519024.76601,14
478,1708519024.77602,14
479,1708519024.78598,14
480,1708519024.79597,13
481,1708519024.80597,13
482,1708519024.81596,13
483,1708519024.82599,13
484,1708519024.83593,13
485,1708519024.84592,13
486,1708519024.85593,13
487,1708519024.86592,13
488,1708519024.87599,13
489,1708519024.88589,13
490,1708519024.89589,13
491,1708519024.90587,13
492,1708519024.91586,13
493,1708519024.92596,13
494,1708519024.93584,13
495,1708519024.94587,13
496,1708519024.95581,13
497,1708519024.96582,13
498,1708519024.97582,13
499,1708519024.98579,13
500,1708519024.99586,13
501,1708519025.00577,13
502,1708519025.01576,13
503,1708519025.02577,13
504,1708519025.03574,13
505,1708519025.04584,13
506,1708519025.05572,13
507,1708519025.06576,13
508,1708519025.0757,13
509,1708519025.08569,13
510,1708519025.09572,13
511,1708519025.10568,13
512,1708519025.11573,13
513,1708519025.12566,13
514,1708519025.13566,13
515,1708519025.14567,13
516,1708519025.15563,13
517,1708519025.16571,13
518,1708519025.17561,13
519,1708519025.18561,13
520,1708519025.19563,13
521,1708519025.20558,13
522,1708519025.21558,13
523,1708519025.22558,14
524,1708519025.23561,13
525,1708519025.24555,13
526,1708519025.25554,13
527,1708519025.26555,13
528,1708519025.27551,13
529,1708519025.28559,13
530,1708519025.29552,14
531,1708519025.30552,13
532,1708519025.3155,13
533,1708519025.32547,14
534,1708519025.33546,13
535,1708519025.34545,13
536,1708519025.35549,13
537,1708519025.36543,13
538,1708519025.37542,13
539,1708519025.38544,13
540,1708519025.39541,13
541,1708519025.40548,13
542,1708519025.41539,13
543,1708519025.42539,13
544,1708519025.43539,13
545,1708519025.44538,13
546,1708519025.45545,13
547,1708519025.46535,13
548,1708519025.47538,13
549,1708519025.48533,13
550,1708519025.49532,13
551,1708519025.50532,13
552,1708519025.5153,13
553,1708519025.52536,13
554,1708519025.53527,13
555,1708519025.54528,13
556,1708519025.55528,13
557,1708519025.56526,13
558,1708519025.57536,13
559,1708519025.58524,13
560,1708519025.59527,13
561,1708519025.60523,12
562,1708519025.61521,13
563,1708519025.62521,13
564,1708519025.63519,13
565,1708519025.64524,13
566,1708519025.65517,13
567,1708519025.66518,13
568,1708519025.67515,13
569,1708519025.68514,13
570,1708519025.69524,13
571,1708519025.70514,13
572,1708519025.71515,13
573,1708519025.72511,13
574,1708519025.73509,13
575,1708519025.74512,13
576,1708519025.75508,13
577,1708519025.76514,14
578,1708519025.77506,14
579,1708519025.78506,14
580,1708519025.79506,14
581,1708519025.80503,13
582,1708519025.81513,13
583,1708519025.82502,13
584,1708519025.83505,13
585,1708519025.84499,12
586,1708519025.85499,13
587,1708519025.86499,13
588,1708519025.87498,13
589,1708519025.88503,13
590,1708519025.89497,13
591,1708519025.90494,12
592,1708519025.91495,13
593,1708519025.92492,13
594,1708519025.93502,13
595,1708519025.9449,13
596,1708519025.95493,12
597,1708519025.96488,13
598,1708519025.97488,13
599,1708519025.98488,13
600,1708519025.99487,12
601,1708519026.00491,13
602,1708519026.01484,13
603,1708519026.02482,13
604,1708519026.03484,13
605,1708519026.04482,13
606,1708519026.0549,12
607,1708519026.0648,13
608,1708519026.07479,13
609,1708519026.08478,13
610,1708519026.09476,13
611,1708519026.10475,12
612,1708519026.11474,13
613,1708519026.12478,13
614,1708519026.13474,12
615,1708519026.14473,13
616,1708519026.15473,12
617,1708519026.16471,13
618,1708519026.17476,13
619,1708519026.18469,13
620,1708519026.19468,13
621,1708519026.20468,13
622,1708519026.21465,13
623,1708519026.22464,13
624,1708519026.23463,13
625,1708519026.24466,13
626,1708519026.25461,13
627,1708519026.26461,13
628,1708519026.27461,13
629,1708519026.28459,12
630,1708519026.29467,12
631,1708519026.30457,13
632,1708519026.31457,13
633,1708519026.32457,13
634,1708519026.33454,13
635,1708519026.34463,13
636,1708519026.35451,13
637,1708519026.36455,13
638,1708519026.3745,13
639,1708519026.38449,13
640,1708519026.39449,12
641,1708519026.40447,12
642,1708519026.41453,13
643,1708519026.42445,13
644,1708519026.43445,13
645,1708519026.44446,13
646,1708519026.45443,13
647,1708519026.46452,13
648,1708519026.4744,13
649,1708519026.48441,13
650,1708519026.49439,12
651,1708519026.50438,12
652,1708519026.51437,13
653,1708519026.52436,13
654,1708519026.53441,13
655,1708519026.54434,13
656,1708519026.55434,13
657,1708519026.56435,13
658,1708519026.57431,13
659,1708519026.58438,12
660,1708519026.5943,13
661,1708519026.6043,12
662,1708519026.61429,12
663,1708519026.62427,13
664,1708519026.63425,12
665,1708519026.64426,12
666,1708519026.65428,13
667,1708519026.66423,13
668,1708519026.67423,13
669,1708519026.68423,13
670,1708519026.69421,13
671,1708519026.70426,13
672,1708519026.71418,13
673,1708519026.72418,13
674,1708519026.73419,13
675,1708519026.74416,13
676,1708519026.75426,13
677,1708519026.76414,15
678,1708519026.77417,14
679,1708519026.78412,14
680,1708519026.79412,13
681,1708519026.80423,13
682,1708519026.81409,13
683,1708519026.82414,13
684,1708519026.83408,13
685,1708519026.84407,13
686,1708519026.85408,13
687,1708519026.86406,13
688,1708519026.87413,13
689,1708519026.88402,13
690,1708519026.89403,13
691,1708519026.90401,12
692,1708519026.914,13
693,1708519026.92399,13
694,1708519026.93398,13
695,1708519026.94403,13
696,1708519026.95398,13
697,1708519026.96397,13
698,1708519026.97396,13
699,1708519026.98394,13
700,1708519026.994,13
701,1708519027.00391,13
702,1708519027.0139,13
703,1708519027.02391,13
704,1708519027.03388,13
705,1708519027.04398,13
706,1708519027.05388,13
707,1708519027.0639,13
708,1708519027.07389,13
709,1708519027.08384,13
710,1708519027.09384,13
711,1708519027.10382,13
712,1708519027.11387,13
713,1708519027.12381,13
714,1708519027.1338,13
715,1708519027.14381,12
716,1708519027.1538,13
717,1708519027.16385,13
718,1708519027.17376,13
719,1708519027.18376,13
720,1708519027.19377,13
721,1708519027.20373,13
722,1708519027.21372,13
723,1708519027.22371,13
724,1708519027.23375,13
725,1708519027.24372,13
726,1708519027.2537,13
727,1708519027.2637,13
728,1708519027.27367,13
729,1708519027.28372,13
730,1708519027.29365,13
731,1708519027.30364,13
732,1708519027.31366,13
733,1708519027.32361,13
734,1708519027.33372,13
735,1708519027.3436,13
736,1708519027.35364,13
737,1708519027.3636,13
738,1708519027.37358,13
739,1708519027.38358,13
740,1708519027.39355,13
741,1708519027.40362,13
742,1708519027.41354,13
743,1708519027.42353,13
744,1708519027.43354,13
745,1708519027.44351,13
746,1708519027.4536,13
747,1708519027.4635,13
748,1708519027.47352,13
749,1708519027.48348,13
750,1708519027.49346,13
751,1708519027.50346,13
752,1708519027.51344,13
753,1708519027.5235,13
754,1708519027.53343,13
755,1708519027.54342,13
756,1708519027.55343,13
757,1708519027.5634,13
758,1708519027.57349,13
759,1708519027.58338,13
760,1708519027.59341,13
761,1708519027.6034,13
762,1708519027.61335,13
763,1708519027.62335,13
764,1708519027.63334,13
765,1708519027.64337,13
766,1708519027.65331,13
767,1708519027.66331,13
768,1708519027.67332,13
769,1708519027.68329,13
770,1708519027.69336,13
771,1708519027.70329,13
772,1708519027.71328,13
773,1708519027.72325,14
774,1708519027.73324,13
775,1708519027.74325,13
776,1708519027.75322,13
777,1708519027.76327,13
778,1708519027.7732,14
779,1708519027.78319,14
780,1708519027.79321,14
781,1708519027.80318,14
782,1708519027.81327,14
783,1708519027.82317,14
784,1708519027.83319,14
785,1708519027.84315,13
786,1708519027.85312,14
787,1708519027.86325,14
788,1708519027.87311,14
789,1708519027.88316,13
790,1708519027.89309,13
791,1708519027.9031,13
792,1708519027.9131,13
793,1708519027.92307,13
794,1708519027.93316,13
795,1708519027.94306,13
796,1708519027.95308,13
797,1708519027.96303,13
798,1708519027.97302,13
799,1708519027.98302,13
800,1708519027.993,12
801,1708519028.00304,12
802,1708519028.01298,13
803,1708519028.02297,13
804,1708519028.03299,13
805,1708519028.04297,13
806,1708519028.05302,13
807,1708519028.06294,13
808,1708519028.07294,13
809,1708519028.08292,12
810,1708519028.09291,12
811,1708519028.1029,12
812,1708519028.11289,13
813,1708519028.12293,13
814,1708519028.13289,13
815,1708519028.14287,13
816,1708519028.15287,13
817,1708519028.16285,13
818,1708519028.17291,14
819,1708519028.18284,13
820,1708519028.19283,13
821,1708519028.20281,12
822,1708519028.2128,13
823,1708519028.2229,13
824,1708519028.23277,13
825,1708519028.24281,13
826,1708519028.25277,13
827,1708519028.26275,13
828,1708519028.27276,13
829,1708519028.28274,13
830,1708519028.29279,12
831,1708519028.30271,13
832,1708519028.31272,13
833,1708519028.32271,13
834,1708519028.33268,13
835,1708519028.34278,13
836,1708519028.35266,13
837,1708519028.3627,13
838,1708519028.37265,13
839,1708519028.38266,12
840,1708519028.39265,12
